time,x,xd,theta,thetad,u_cmd,u_sat,u_applied,sat
1.5099999999999445,-0.04723022357256446,0.48127751922227624,0.8436459712494333,3.3651508091048123,-10.219580484016273,-2.5,2.5,1
1.5199999999999434,-0.038667206276060274,1.226760559849143,0.8675989609774178,1.4516684083539426,-9.1648138742332,-2.5,2.5,1
1.5299999999999423,-0.022763199425830122,1.9517091375196445,0.8730400847791244,-0.3530934551930309,-8.128551165181165,-2.5,2.5,1
1.5399999999999412,0.000340473208729499,2.6686883827834684,0.860599501112989,-2.1390055549290525,-7.029969288107021,-2.5,2.5,1
1.54999999999994,0.0306238659781315,3.389693026640979,0.8300370465568877,-3.992003083338227,-5.790819473639271,-2.5,2.5,1
1.559999999999939,0.06819102854718971,4.127794835897563,0.7802303303441015,-6.004286225534695,-4.326291994517264,-2.5,2.5,1
1.569999999999938,0.11328865276146145,4.898694550218099,0.7090607278020015,-8.284638101451323,-2.535486140024072,-2.5,2.5,1
1.5799999999999368,0.16426113889278188,5.23764222373315,0.6206738970217001,-9.201036391394284,-0.7706138642184666,-0.7706138642184666,0.7706138642184666,0
1.5899999999999357,0.216876066182677,5.2626751908160845,0.5291470318248765,-9.023540794154494,-0.10533758173619301,-0.10533758173619301,0.10533758173619301,0
1.5999999999999346,0.2691479887992461,5.186000646815348,0.44155639880147607,-8.475022386157555,0.03907180721238612,0.03907180721238612,-0.03907180721238612,0
1.6099999999999335,0.32054434295886675,5.092879769214847,0.3597881478422843,-7.880650753279824,0.024328480699340016,0.024328480699340016,-0.024328480699340016,0
1.6199999999999324,0.37102674865366136,5.0040648352632155,0.2837744950505458,-7.328163593218312,-0.009423000857378128,-0.009423000857378128,0.009423000857378128,0
1.6299999999999313,0.4206480500930583,4.920578948627878,0.21304207616916931,-6.824323471918161,-0.03219356240039395,-0.03219356240039395,0.03219356240039395,0
1.6399999999999302,0.4694522098151594,4.8405117417640895,0.14713867764825467,-6.361907766007035,-0.04367705675426281,-0.04367705675426281,0.04367705675426281,0
1.649999999999929,0.5174654616966008,4.762321999570097,0.0856835907895523,-5.934321412893312,-0.047019318281583455,-0.047019318281583455,0.047019318281583455,0
1.659999999999928,0.5647012469596543,4.6849748583658695,0.028353453813892468,-5.5366553618235415,-0.04461873363671576,-0.04461873363671576,0.04461873363671576,0
1.6699999999999269,0.6111643998217493,4.607768680686311,-0.025132069903236937,-5.165169901507754,-0.038128606162740275,-0.038128606162740275,0.038128606162740275,0
1.6799999999999258,0.6568538615672859,4.530218647719258,-0.07501995692753147,-4.81691160204852,-0.028726468504544578,-0.028726468504544578,0.028726468504544578,0
1.6899999999999247,0.7017644866224064,4.451988261905694,-0.12153047676866956,-4.489483844114945,-0.017279066324383252,-0.017279066324383252,0.017279066324383252,0
1.6999999999999236,0.7458883045003907,4.3728471064247945,-0.16486200640612483,-4.180902183218461,-0.004439389205937838,-0.004439389205937838,0.004439389205937838,0
1.7099999999999225,0.789215438376028,4.29264344270111,-0.20519465449757318,-3.889497671781389,0.00929240676988452,0.00929240676988452,-0.00929240676988452,0
1.7199999999999214,0.8317347966337111,4.211285696268593,-0.24269307257307135,-3.613849251551937,0.023528557155678587,0.023528557155678587,-0.023528557155678587,0
1.7299999999999203,0.873434608509043,4.128729512564552,-0.2775086877076106,-3.352734790651043,0.037965726367110264,0.037965726367110264,-0.037965726367110264,0
1.7399999999999192,0.9143028490801154,4.04496842092719,-0.30978151010856664,-3.1050946093716894,0.0523650896450325,0.0523650896450325,-0.0523650896450325,0
1.749999999999918,0.9543275832683968,3.9600268930562756,-0.3396416201064434,-2.870003660188365,0.0665378350532766,0.0665378350532766,-0.0665378350532766,0
1.759999999999917,0.9934972487025131,3.873955017299203,-0.3672104079648931,-2.6466498676156527,0.08033444602839368,0.08033444602839368,-0.08033444602839368,0
1.7699999999999159,1.0318008909229721,3.786824274747777,-0.39260161937594007,-2.4343169463705396,0.09363669281819575,0.09363669281819575,-0.09363669281819575,0
1.7799999999999148,1.0692283601525951,3.6987240704545985,-0.41592224544747036,-2.232370530333201,0.10635160423292733,0.10635160423292733,-0.10635160423292733,0
1.7899999999999137,1.1057704759670879,3.609758782703993,-0.4372732861021637,-2.040246782036373,0.11840690698917333,0.11840690698917333,-0.11840690698917333,0
1.7999999999999126,1.1414191642166287,3.520045167534737,-0.4567504086983437,-1.857442881090804,0.1297475607182541,0.1297475607182541,-0.1297475607182541,0
1.8099999999999115,1.176167569189361,3.429710007623704,-0.4744445184882977,-1.6835089498041131,0.14033311169783946,0.14033311169783946,-0.14033311169783946,0
1.8199999999999104,1.2100101430898123,3.338887931973588,-0.49044225369281996,-1.5180410891755454,0.15013565463774992,0.15013565463774992,-0.15013565463774992,0
1.8299999999999093,1.2429427143092278,3.2477193603274532,-0.5048264151244272,-1.360675283216792,0.15913823973686947,0.15913823973686947,-0.15913823973686947,0
1.8399999999999082,1.2749625356076628,3.156348546758382,-0.5176763381853993,-1.2110819934686896,0.16733359813867787,0.16733359813867787,-0.16733359813867787,0
1.849999999999907,1.306068313149487,3.064921712245079,-0.5290682135242406,-1.0689613146058228,0.1747230868960945,0.1747230868960945,-0.1747230868960945,0
1.859999999999906,1.3362602172889708,2.973585267357668,-0.5390753615268682,-0.9340385999832179,0.18131577717788439,0.18131577717788439,-0.18131577717788439,0
1.8699999999999048,1.3655398760540571,2.8824841341493634,-0.5477684650492239,-0.8060604953708166,0.18712762831169316,0.18712762831169316,-0.18712762831169316,0
1.8799999999999037,1.3939103523933272,2.7917601814555137,-0.5552157642887513,-0.684791341576284,0.1921807063231893,0.1921807063231893,-0.1921807063231893,0
1.8899999999999026,1.4213761064066226,2.7015507904022846,-0.561483217379382,-0.5700099232793272,0.1965024194264675,0.1965024194264675,-0.1965024194264675,0
1.8999999999999015,1.4479429439503744,2.6119875673424042,-0.5666346301238941,-0.4615065529905507,0.20012475469466828,0.20012475469466828,-0.20012475469466828,0
1.9099999999999004,1.4736179531740592,2.5231952199882843,-0.5707317582014371,-0.35908048625204503,0.20308350996902647,0.20308350996902647,-0.20308350996902647,0
1.9199999999998993,1.4984094306874516,2.4352906095531957,-0.5738343851656017,-0.2625376676132552,0.20541752294368187,0.20541752294368187,-0.20541752294368187,0
1.9299999999998982,1.5223267991662086,2.3483819876192777,-0.576000379544606,-0.17168880715335302,0.2071679052735642,0.2071679052735642,-0.2071679052735642,0
1.9399999999998971,1.5453805182664502,2.26256842162907,-0.5772857343412544,-0.08634778502834387,0.208377293511123,0.208377293511123,-0.208377293511123,0
1.949999999999896,1.567581990732084,2.1779394077500047,-0.5777445921842884,-0.006330377383372359,0.2090891307717042,0.2090891307717042,-0.2090891307717042,0
1.959999999999895,1.5889434655403927,2.0945746647740697,-0.5774292592895344,0.06854670830901174,0.20934699342719165,0.20934699342719165,-0.20934699342719165,0
1.9699999999998938,1.609477939844121,2.01254409802863,-0.5763902112408242,0.13846650616184125,0.20919397608518553,0.20919397608518553,-0.20919397608518553,0
1.9799999999998927,1.629199061337457,1.9319079182658294,-0.5746760933955096,0.20361219628691243,0.20867214594201,0.20867214594201,-0.20867214594201,0
1.9899999999998916,1.6481210325066453,1.8527168973643473,-0.5723337184618476,0.26416726883620273,0.20782207465651092,0.20782207465651092,-0.20782207465651092,0
1.9999999999998905,1.6662585180329248,1.7750127405301708,-0.569408063494533,0.32031547958807477,0.20668245253834927,0.20668245253834927,-0.20668245253834927,0
2.0099999999998897,1.6836265564060198,1.6988285535497936,-0.5659422682224298,0.37224063143971575,0.2052897864160994,0.2052897864160994,-0.2052897864160994,0
2.0199999999998886,1.7002404765905252,1.6241893834819774,-0.5619776362731311,0.4201262171632159,0.20367817933364352,0.20367817933364352,-0.20367817933364352,0
2.0299999999998875,1.7161158203743483,1.5511128118645368,-0.557553640506748,0.4641549583599684,0.2018791874375876,0.2018791874375876,-0.2018791874375876,0
2.0399999999998863,1.7312682708257157,1.479609580909827,-0.5527079333298129,0.5045082738489083,0.19992174720701783,0.19992174720701783,-0.19992174720701783,0
2.0499999999998852,1.745713587099371,1.4096842350927274,-0.5474763625410662,0.5413657079720996,0.19783216460824082,0.19783216460824082,-0.19783216460824082,0
2.059999999999884,1.7594675456678692,1.3413357628183042,-0.5418929929733552,0.5749043457676281,0.19563415683325847,0.19563415683325847,-0.19563415683325847,0
2.069999999999883,1.772545887913004,1.2745582253230656,-0.5359901339463045,0.6052982379313003,0.19334893695035582,0.19334893695035582,-0.19334893695035582,0
2.079999999999882,1.7849642738964848,1.2093413624640483,-0.5297983723363676,0.6327178542402011,0.1909953319709743,0.1909953319709743,-0.1909953319709743,0
2.089999999999881,1.7967382420376339,1.1456711674618338,-0.5233466109053188,0.6573295798848312,0.18858992541071462,0.18858992541071462,-0.18858992541071462,0
2.0999999999998797,1.8078831743578416,1.0835304248949664,-0.5166621114039522,0.6792952651492503,0.18614721628011566,0.18614721628011566,-0.18614721628011566,0
2.1099999999998786,1.8184142669045926,1.0228992082323378,-0.509770541881785,0.6987718352355783,0.1836797874739613,0.1836797874739613,-0.1836797874739613,0
2.1199999999998775,1.828346504939469,0.9637553349021561,-0.5026960275817622,0.715910963844824,0.18119847764123942,0.18119847764123942,-0.18119847764123942,0
2.1299999999998764,1.8376946424618221,0.9060747783194311,-0.4954612047764912,0.7308588114482226,0.1787125517337118,0.1787125517337118,-0.1787125517337118,0
2.1399999999998753,1.8464731856398902,0.8498320374347137,-0.4880872769042651,0.7437558270213045,0.17622986649120675,0.17622986649120675,-0.17622986649120675,0
2.1499999999998742,1.8546963797312992,0.7950004652442539,-0.480594072383982,0.7547366103460907,0.17375702808621352,0.17375702808621352,-0.17375702808621352,0
2.159999999999873,1.8623781990926433,0.7415525583433077,-0.47300010352329996,0.7639298307733098,0.17129953999583103,0.17129953999583103,-0.17129953999583103,0
2.169999999999872,1.8695323399009407,0.6894602100419006,-0.46532262597971213,0.7714581975217003,0.16886193988545872,0.16886193988545872,-0.16886193988545872,0
2.179999999999871,1.8761722152363982,0.6386949298292063,-0.4575776982859886,0.7774384761144183,0.1664479248759232,0.1664479248759232,-0.1664479248759232,0
2.18999999999987,1.8823109522044859,0.5892280321010981,-0.4497802410065654,0.7819815453516346,0.16406046503149163,0.16406046503149163,-0.16406046503149163,0
2.1999999999998687,1.8879613908046295,0.5410307970852615,-0.44194409514747607,0.7851924892348665,0.16170190526211914,0.16170190526211914,-0.16170190526211914,0
2.2099999999998676,1.8931360842819052,0.494074606835988,-0.43408207949743477,0.7871707184391442,0.15937405609373445,0.15937405609373445,-0.15937405609373445,0
2.2199999999998665,1.8978473007262586,0.4483310590491776,-0.4262060466302712,0.7880101162272979,0.15707827394034068,0.15707827394034068,-0.15707827394034068,0
2.2299999999998654,1.9021070257104948,0.40377206128609516,-0.41832693734812165,0.7877992040772468,0.15481553162582706,0.15481553162582706,-0.15481553162582706,0
2.2399999999998643,1.9059269657832427,0.36036990800738217,-0.41045483338997135,0.786621322716291,0.15258647996528696,0.15258647996528696,-0.15258647996528696,0
2.249999999999863,1.909318552656111,0.318097342618808,-0.4025990082709806,0.78455482470069,0.1503915012371635,0.1503915012371635,-0.1503915012371635,0
2.259999999999862,1.9122929479452653,0.276927606526448,-0.39476797615441406,0.7816732751250276,0.1482307553691009,0.1482307553691009,-0.1482307553691009,0
2.269999999999861,1.914861048346612,0.2368344769982015,-0.3869695386899639,0.7780456574798551,0.1461042196305089,0.1461042196305089,-0.1461042196305089,0
2.27999999999986,1.9170334911407811,0.19779229543564866,-0.37921082978000026,0.7737365820878621,0.14401172258036876,0.14401172258036876,-0.14401172258036876,0
2.289999999999859,1.9188206599392206,0.15977598747836283,-0.3714983582590495,0.768806494932017,0.1419529729654303,0.1419529729654303,-0.1419529729654303,0
2.2999999999998577,1.920232690596087,0.12276107619394759,-0.3638380484918944,0.7633118850399288,0.13992758420570706,0.13992758420570706,-0.13992758420570706,0
2.3099999999998566,1.9212794772223654,0.08672368945223752,-0.3562352789124482,0.7573054889054365,0.1379350950443229,0.1379350950443229,-0.1379350950443229,0
2.3199999999998555,1.921970678248928,0.05164056244158956,-0.3486949185393119,0.7508364907110702,0.13597498687961984,0.13597498687961984,-0.13597498687961984,0
2.3299999999998544,1.9223157224941756,0.01748903615877879,-0.34122136151503063,0.743950717364467,0.1340466982405678,0.1340466982405678,-0.1340466982405678,0
2.3399999999998533,1.9223238151996538,-0.015752947408873733,-0.33381855972482494,0.736690827579849,0.13214963681295577,0.13214963681295577,-0.13214963681295577,0
2.349999999999852,1.9220039440037122,-0.04810685279066918,-0.3264900535573085,0.7290964944243946,0.1302831893742824,0.1302831893742824,-0.1302831893742824,0
2.359999999999851,1.921364884829015,-0.07959356069889383,-0.3192390008746806,0.7212045809113277,0.12844672994994077,0.12844672994994077,-0.12844672994994077,0
2.36999999999985,1.9204152076646068,-0.11023337940185436,-0.3120682042633706,0.7130493083592712,0.12663962646240734,0.12663962646240734,-0.12663962646240734,0
2.379999999999849,1.9191632822274396,-0.1400460574188722,-0.30498013663832046,0.7046624173534874,0.12486124610840743,0.12486124610840743,-0.12486124610840743,0
2.389999999999848,1.91761728349179,-0.16905079721155186,-0.29797696527524825,0.696073321241483,0.12311095966655095,0.12311095966655095,-0.12311095966655095,0
2.3999999999998467,1.9157851970780095,-0.19726626959684365,-0.29106057434550203,0.687309252175453,0.1213881449091343,0.1213881449091343,-0.1213881449091343,0
2.4099999999998456,1.9136748244945663,-0.22471062865167787,-0.2842325860276583,0.6783953997792931,0.11969218926662822,0.11969218926662822,-0.11969218926662822,0
2.4199999999998445,1.9112937882294372,-0.25140152691709733,-0.27749438026897255,0.6693550425704544,0.11802249187138375,0.11802249187138375,-0.11802249187138375,0
2.4299999999998434,1.9086495366886804,-0.2773561307425781,-0.27084711326827904,0.6602096723084557,0.1163784650879795,0.1163784650879795,-0.1163784650879795,0
2.4399999999998423,1.9057493489814434,-0.3025911356393105,-0.26429173475005,0.6509791114740934,0.11475953562114266,0.11475953562114266,-0.11475953562114266,0
2.449999999999841,1.9026003395518793,-0.3271227815351861,-0.25782900409716447,0.6416816241075965,0.11316514527791971,0.11316514527791971,-0.11316514527791971,0
2.45999999999984,1.8992094626593927,-0.35096686784466863,-0.25145950540756173,0.6323340202515324,0.11159475144860997,0.11159475144860997,-0.11159475144860997,0
2.469999999999839,1.8955835167094242,-0.37413876828407594,-0.24518366153743792,0.622951754256153,0.11004782736049801,0.11004782736049801,-0.11004782736049801,0
2.479999999999838,1.8917291484376022,-0.39665344537749136,-0.23900174719102782,0.6135490172121288,0.10852386214954635,0.10852386214954635,-0.10852386214954635,0
2.489999999999837,1.887652856950575,-0.4185254646109217,-0.2329139011143477,0.6041388237789586,0.10702236078761995,0.10702236078761995,-0.10702236078761995,0
2.4999999999998357,1.8833609976272034,-0.4397690082027532,-0.2269201374475907,0.5947330936775871,0.10554284389642166,0.10554284389642166,-0.10554284389642166,0
2.5099999999998346,1.8788597858840745,-0.46039788846729696,-0.22102035628819114,0.5853427281134189,0.10408484747388014,0.10408484747388014,-0.10408484747388014,0
2.5199999999998335,1.87415530080949,-0.4804255607555103,-0.21521435351393547,0.5759776813915438,0.10264792255417765,0.10264792255417765,-0.10264792255417765,0
2.5299999999998324,1.8692534886702046,-0.4998651359630416,-0.20950182991290695,0.5666470279800179,0.10123163481875086,0.10123163481875086,-0.10123163481875086,0
2.5399999999998313,1.8641601662952751,-0.5187293926007517,-0.20388239966453123,0.557359025269846,0.09983556417240191,0.09983556417240191,-0.09983556417240191,0
2.54999999999983,1.858881024341399,-0.5370307884269718,-0.19835559821354232,0.5481211722721568,0.0984593042959444,0.0984593042959444,-0.0984593042959444,0
2.559999999999829,1.853421630444109,-0.5547814716441086,-0.19292088957632864,0.5389402644842738,0.09710246218458707,0.09710246218458707,-0.09710246218458707,0
2.569999999999828,1.8477874322591639,-0.5719932916649091,-0.1875776731168482,0.5298224451471387,0.09576465767940023,0.09576465767940023,-0.09576465767940023,0
2.579999999999827,1.841983760398397,-0.5886778094558518,-0.18232528982712537,0.5207732531069841,0.09444552299765796,0.09444552299765796,-0.09444552299765796,0
2.5899999999998258,1.8360158312642054,-0.6048463074668355,-0.17716302814526078,0.5117976674845223,0.09314470226659666,0.09314470226659666,-0.09314470226659666,0
2.5999999999998247,1.8298887497867702,-0.6205097991576359,-0.172090129341903,0.5029001493452093,0.09186185106407652,0.09186185106407652,-0.09186185106407652,0
2.6099999999998236,1.82360751206798,-0.6356790381325987,-0.16710579250424204,0.4940846805545625,0.09059663596879286,0.09059663596879286,-0.09059663596879286,0
2.6199999999998225,1.8171770079359133,-0.6503645268957455,-0.16220917914479424,0.4853547999930697,0.08934873412198507,0.08934873412198507,-0.08934873412198507,0
2.6299999999998214,1.8106020234136162,-0.6645765252389627,-0.1573994174605467,0.47671363729599,0.08811783280203411,0.08811783280203411,-0.08811783280203411,0
2.6399999999998203,1.8038872431057784,-0.6783250582762431,-0.1526756062664246,0.4681639442743822,0.08690362901288051,0.08690362901288051,-0.08690362901288051,0
2.649999999999819,1.7970372525067806,-0.6916199241371039,-0.14803681862552276,0.45970812416503215,0.08570582908685709,0.08570582908685709,-0.08570582908685709,0
2.659999999999818,1.7900565402334563,-0.7044707013323255,-0.14348210519710883,0.4513482588485811,0.08452414830222038,0.08452414830222038,-0.08452414830222038,0
2.669999999999817,1.782949500185779,-0.7168867558050745,-0.13901049732205403,0.44308613416713954,0.08335831051546227,0.08335831051546227,-0.08335831051546227,0
2.679999999999816,1.7757204336385584,-0.7288772476803198,-0.13462100986407147,0.4349232634649951,0.08220804780830032,0.08220804780830032,-0.08220804780830032,0
2.6899999999998148,1.7683735512670955,-0.7404511377252116,-0.13031264382394414,0.42686090946868827,0.08107310014912472,0.08107310014912472,-0.08107310014912472,0
2.6999999999998137,1.7609129751096275,-0.7516171935328265,-0.12608438874279718,0.4189001046157402,0.07995321506856917,0.07995321506856917,-0.07995321506856917,0
2.7099999999998126,1.7533427404692679,-0.7623839954413553,-0.12193522490940874,0.41104166993470725,0.07884814734882067,0.07884814734882067,-0.07884814734882067,0
2.7199999999998115,1.7456667977580271,-0.7727599422004608,-0.11786412538555961,0.40328623257289836,0.07775765872621593,0.07775765872621593,-0.07775765872621593,0
2.7299999999998104,1.737889014285385,-0.7827532563961709,-0.11387005786248858,0.3956342420621665,0.07668151760666025,0.07668151760666025,-0.07668151760666025,0
2.7399999999998093,1.7300131759937778,-0.7923719896452747,-0.10995198636064407,0.3880859854075161,0.07561949879336555,0.07561949879336555,-0.07561949879336555,0
2.749999999999808,1.722042989143247,-0.8016240275698091,-0.10610887278410286,0.38064160107795103,0.07457138322642176,0.07457138322642176,-0.07457138322642176,0
2.759999999999807,1.7139820819474,-0.8105170945618144,-0.10233967834025733,0.3733010919739555,0.07353695773369562,0.07353695773369562,-0.07353695773369562,0
2.769999999999806,1.705834006162731,-0.8190587583481436,-0.09864336483465316,0.3660643374412498,0.07251601479256775,0.07251601479256775,-0.07251601479256775,0
